Frame	X	Y	VelX	VelY	Angle	AngularVel	Leg1	Leg2
0	0.00965	1.42347	0.48326	0.26605	-0.00950	-0.07758	0	0
1	0.01437	1.42885	0.47433	0.23907	-0.01159	-0.04169	0	0
2	0.01901	1.43362	0.46306	0.21232	-0.01141	0.00353	0	0
3	0.02357	1.43781	0.45465	0.18583	-0.00955	0.03726	0	0
4	0.02805	1.44140	0.44427	0.15975	-0.00560	0.07888	0	0
5	0.03246	1.44438	0.43412	0.13260	0.00037	0.11950	0	0
6	0.03679	1.44676	0.42538	0.10560	0.00809	0.15444	0	0
7	0.04105	1.44854	0.41692	0.07916	0.01750	0.18822	0	0
8	0.04523	1.44972	0.40619	0.05201	0.02906	0.23117	0	0
9	0.04934	1.45030	0.39694	0.02568	0.04246	0.26798	0	0
10	0.05335	1.45029	0.38612	-0.00083	0.05801	0.31104	0	0
11	0.05728	1.44968	0.37455	-0.02798	0.07587	0.35732	0	0
12	0.06111	1.44846	0.36290	-0.05563	0.09608	0.40417	0	0
13	0.06486	1.44662	0.35184	-0.08334	0.11851	0.44872	0	0
14	0.06851	1.44417	0.34034	-0.11096	0.14326	0.49500	0	0
15	0.07209	1.44113	0.33187	-0.13806	0.16969	0.52865	0	0
16	0.07561	1.43748	0.32361	-0.16553	0.19778	0.56186	0	0
17	0.07903	1.43321	0.31244	-0.19414	0.22819	0.60820	0	0
18	0.08237	1.42832	0.30203	-0.22261	0.26075	0.65135	0	0
19	0.08564	1.42282	0.29324	-0.25060	0.29512	0.68740	0	0
20	0.08890	1.41674	0.29319	-0.27738	0.32948	0.68724	0	0
21	0.09216	1.41007	0.29314	-0.30416	0.36383	0.68709	0	0
22	0.09541	1.40282	0.29309	-0.33094	0.39817	0.68693	0	0
23	0.09859	1.39494	0.28341	-0.36016	0.43465	0.72954	0	0
24	0.10169	1.38642	0.27527	-0.38993	0.47303	0.76772	0	0
25	0.10472	1.37727	0.26770	-0.41948	0.51326	0.80444	0	0
26	0.10770	1.36748	0.26053	-0.44957	0.55535	0.84198	0	0
27	0.11059	1.35705	0.25112	-0.47978	0.59975	0.88788	0	0
28	0.11340	1.34597	0.24309	-0.51093	0.64641	0.93329	0	0
29	0.11614	1.33423	0.23440	-0.54240	0.69554	0.98260	0	0
30	0.11879	1.32184	0.22654	-0.57314	0.74685	1.02613	0	0
31	0.12139	1.30882	0.22130	-0.60356	0.79987	1.06041	0	0
32	0.12391	1.29516	0.21443	-0.63488	0.85509	1.10438	0	0
33	0.12637	1.28081	0.20820	-0.66752	0.91280	1.15429	0	0
34	0.12874	1.26580	0.20076	-0.70034	0.97324	1.20874	0	0
35	0.13105	1.25013	0.19696	-0.73197	1.03562	1.24769	0	0
36	0.13330	1.23380	0.19381	-0.76377	1.09997	1.28684	0	0
37	0.13548	1.21679	0.18879	-0.79673	1.16685	1.33763	0	0
38	0.13759	1.19909	0.18516	-0.83027	1.23637	1.39037	0	0
39	0.13963	1.18069	0.18211	-0.86458	1.30877	1.44811	0	0
40	0.14160	1.16162	0.17997	-0.89641	1.38313	1.48709	0	0
41	0.14350	1.14184	0.17860	-0.93035	1.46019	1.54121	0	0
42	0.14536	1.12158	0.17992	-0.95101	1.53492	1.49471	0	0
43	0.14717	1.10082	0.18058	-0.97160	1.60732	1.44808	0	0
44	0.14892	1.07959	0.18030	-0.99025	1.67667	1.38692	0	0
45	0.15063	1.05789	0.17926	-1.00891	1.74297	1.32590	0	0
46	0.15228	1.03571	0.17787	-1.02735	1.80613	1.26334	0	0
47	0.15387	1.01303	0.17558	-1.04753	1.86680	1.21330	0	0
48	0.15541	0.98986	0.17248	-1.06673	1.92457	1.15549	0	0
49	0.15691	0.96618	0.17055	-1.08759	1.98015	1.11155	0	0
50	0.15835	0.94197	0.16670	-1.10878	2.03352	1.06735	0	0
51	0.15974	0.91723	0.16292	-1.12992	2.08467	1.02315	0	0
52	0.16107	0.89199	0.15799	-1.14986	2.13313	0.96914	0	0
53	0.16234	0.86624	0.15262	-1.17038	2.17905	0.91832	0	0
54	0.16355	0.83996	0.14748	-1.19175	2.22273	0.87376	0	0
55	0.16469	0.81318	0.13992	-1.21193	2.26355	0.81638	0	0
56	0.16577	0.78587	0.13264	-1.23328	2.30190	0.76687	0	0
57	0.16678	0.75804	0.12568	-1.25483	2.33787	0.71952	0	0
58	0.16771	0.72969	0.11741	-1.27586	2.37117	0.66587	0	0
59	0.16857	0.70083	0.10867	-1.29701	2.40176	0.61179	0	0
60	0.16936	0.67145	0.09964	-1.31815	2.42960	0.55692	0	0
61	0.17010	0.64154	0.09392	-1.34078	2.45558	0.51967	0	0
62	0.17076	0.61111	0.08431	-1.36247	2.47889	0.46609	0	0
63	0.17134	0.58015	0.07474	-1.38431	2.49956	0.41345	0	0
64	0.17184	0.54868	0.06525	-1.40581	2.51755	0.35968	0	0
65	0.17229	0.51667	0.05752	-1.42877	2.53346	0.31822	0	0
66	0.17267	0.48412	0.05048	-1.45215	2.54750	0.28089	0	0
67	0.17301	0.45101	0.04365	-1.47629	2.55988	0.24758	0	0
68	0.17327	0.41736	0.03496	-1.49930	2.57005	0.20330	0	0
69	0.17346	0.38318	0.02601	-1.52201	2.57789	0.15699	0	0
70	0.17359	0.34845	0.01761	-1.54556	2.58369	0.11599	0	0
71	0.17365	0.31320	0.00860	-1.56786	2.58709	0.06793	0	0
72	0.17364	0.27743	-0.00024	-1.59028	2.58814	0.02092	0	0
73	0.17357	0.24110	-0.00755	-1.61414	2.58738	-0.01514	0	0
74	0.17344	0.20422	-0.01423	-1.63830	2.58499	-0.04784	0	0
75	0.17324	0.16681	-0.02482	-1.66070	2.57995	-0.10087	0	0
76	0.17297	0.12886	-0.03245	-1.68446	2.57302	-0.13845	0	0
77	0.17263	0.09037	-0.04210	-1.70737	2.56371	-0.18624	0	0
78	0.17224	0.05131	-0.04879	-1.73163	2.55278	-0.21861	0	0
79	0.17141	0.01670	-0.31030	-0.06810	2.55484	1.62060	0	0
80	-0.00010	1.39001	-0.01078	-0.47771	0.00200	0.03968	0	0
81	-0.00026	1.37866	-0.02004	-0.50448	0.00584	0.07675	0	0
82	-0.00051	1.36671	-0.03116	-0.53085	0.01190	0.12129	0	0
83	-0.00085	1.35417	-0.04226	-0.55742	0.02019	0.16571	0	0
84	-0.00125	1.34104	-0.05002	-0.58386	0.03002	0.19662	0	0
85	-0.00174	1.32730	-0.06185	-0.61088	0.04221	0.24397	0	0
86	-0.00233	1.31297	-0.07313	-0.63759	0.05666	0.28898	0	0
87	-0.00301	1.29803	-0.08496	-0.66478	0.07348	0.33635	0	0
88	-0.00376	1.28249	-0.09418	-0.69138	0.09212	0.37291	0	0
89	-0.00460	1.26636	-0.10437	-0.71866	0.11281	0.41370	0	0
90	-0.00552	1.24961	-0.11474	-0.74636	0.13558	0.45559	0	0
91	-0.00652	1.23225	-0.12460	-0.77387	0.16034	0.49521	0	0
92	-0.00759	1.21428	-0.13376	-0.80189	0.18697	0.53269	0	0
93	-0.00874	1.19569	-0.14363	-0.83005	0.21563	0.57323	0	0
94	-0.00996	1.17649	-0.15181	-0.85775	0.24595	0.60642	0	0
95	-0.01124	1.15669	-0.15916	-0.88558	0.27778	0.63661	0	0
96	-0.01261	1.13627	-0.16968	-0.91427	0.31182	0.68084	0	0
97	-0.01407	1.11522	-0.18161	-0.94328	0.34837	0.73113	0	0
98	-0.01563	1.09356	-0.19189	-0.97233	0.38713	0.77533	0	0
99	-0.01725	1.07127	-0.20034	-1.00138	0.42777	0.81276	0	0
100	-0.01896	1.04835	-0.21004	-1.03093	0.47058	0.85635	0	0
101	-0.02073	1.02481	-0.21664	-1.06037	0.51500	0.88855	0	0
102	-0.02258	1.00063	-0.22547	-1.09086	0.56163	0.93266	0	0
103	-0.02450	0.97580	-0.23342	-1.12162	0.61038	0.97508	0	0
104	-0.02636	0.95044	-0.22434	-1.14591	0.65704	0.93321	0	0
105	-0.02819	0.92454	-0.21768	-1.16987	0.70201	0.89931	0	0
106	-0.02995	0.89815	-0.20880	-1.19205	0.74451	0.85000	0	0
107	-0.03167	0.87123	-0.20180	-1.21511	0.78505	0.81073	0	0
108	-0.03336	0.84380	-0.19574	-1.23799	0.82370	0.77308	0	0
109	-0.03500	0.81587	-0.18836	-1.25942	0.85989	0.72381	0	0
110	-0.03659	0.78746	-0.18063	-1.28010	0.89335	0.66916	0	0
111	-0.03813	0.75855	-0.17331	-1.30154	0.92434	0.61993	0	0
112	-0.03962	0.72916	-0.16662	-1.32162	0.95254	0.56396	0	0
113	-0.04108	0.69928	-0.16043	-1.34172	0.97800	0.50908	0	0
114	-0.04250	0.66890	-0.15510	-1.36385	1.00143	0.46870	0	0
115	-0.04389	0.63802	-0.15004	-1.38435	1.02236	0.41850	0	0
116	-0.04525	0.60662	-0.14590	-1.40633	1.04134	0.37963	0	0
117	-0.04657	0.57472	-0.14077	-1.42767	1.05806	0.33450	0	0
118	-0.04785	0.54233	-0.13472	-1.44803	1.07212	0.28114	0	0
119	-0.04910	0.50942	-0.13083	-1.46977	1.08417	0.24097	0	0
120	-0.05030	0.47602	-0.12463	-1.48975	1.09340	0.18473	0	0
121	-0.05147	0.44210	-0.12031	-1.51186	1.10072	0.14624	0	0
122	-0.05261	0.40769	-0.11643	-1.53248	1.10564	0.09848	0	0
123	-0.05373	0.37277	-0.11274	-1.55386	1.10845	0.05615	0	0
124	-0.05481	0.33733	-0.10878	-1.57520	1.10910	0.01313	0	0
125	-0.05587	0.30139	-0.10538	-1.59689	1.10777	-0.02658	0	0
126	-0.05690	0.26493	-0.10098	-1.61802	1.10418	-0.07184	0	0
127	-0.05789	0.22799	-0.09644	-1.63812	1.09797	-0.12430	0	0
128	-0.05884	0.19056	-0.09087	-1.65797	1.08895	-0.18030	0	0
129	-0.05975	0.15265	-0.08545	-1.67777	1.07714	-0.23627	0	0
130	-0.06062	0.11426	-0.08011	-1.69780	1.06261	-0.29054	0	0
131	-0.06145	0.07537	-0.07405	-1.71834	1.04548	-0.34274	0	1
132	-0.06288	0.06893	-0.18042	-0.38743	1.13720	1.75531	0	1
133	-0.06581	0.07148	-0.33670	0.01392	1.26965	2.62196	0	1
134	-0.06926	0.07349	-0.37675	0.00152	1.40108	2.62535	0	1
135	-0.07286	0.07502	-0.37373	-0.01815	1.52924	2.56342	0	0
136	-0.07659	0.07606	-0.37157	-0.03829	1.65466	2.50855	0	0
137	-0.08047	0.07661	-0.37075	-0.05725	1.77696	2.44623	0	0
138	-0.08449	0.07661	-0.37104	-0.07838	1.89701	2.40101	0	0
139	-0.08866	0.07607	-0.37286	-0.09706	2.01389	2.33787	0	0
140	-0.09295	0.07497	-0.37492	-0.11698	2.12814	2.28506	0	0
141	-0.09739	0.07325	-0.37847	-0.13833	2.24016	2.24059	0	0
142	-0.10194	0.07093	-0.38165	-0.15912	2.35040	2.20471	0	0
143	-0.10661	0.06798	-0.38646	-0.18077	2.45853	2.16271	0	0
144	-0.11140	0.06437	-0.39324	-0.20280	2.56444	2.11816	0	0
145	-0.11631	0.06009	-0.39993	-0.22580	2.66840	2.07929	0	0
146	-0.12131	0.05513	-0.40569	-0.24911	2.77069	2.04583	0	0
147	-0.12642	0.04948	-0.41502	-0.27279	2.87071	2.00149	0	0
148	-0.13164	0.04315	-0.42599	-0.29615	2.96822	1.95115	0	0
149	-0.13697	0.03612	-0.43697	-0.32053	3.06335	1.90354	0	0
150	-0.14239	0.02839	-0.44830	-0.34597	3.15611	1.85623	0	0
151	-0.14788	0.01994	-0.45769	-0.37234	3.24693	1.81732	0	0
152	-0.15345	0.01077	-0.46823	-0.39895	3.33559	1.77401	0	0
153	-0.15828	0.00564	-0.41818	-0.03866	3.36668	-0.33416	0	0
154	-0.00101	1.38815	-0.05612	-0.51917	0.00271	0.04308	0	0
155	-0.00164	1.37585	-0.06633	-0.54634	0.00691	0.08398	0	0
156	-0.00235	1.36295	-0.07749	-0.57339	0.01334	0.12870	0	0
157	-0.00314	1.34946	-0.08850	-0.59976	0.02198	0.17270	0	0
158	-0.00401	1.33536	-0.09745	-0.62697	0.03240	0.20854	0	0
159	-0.00495	1.32067	-0.10582	-0.65329	0.04450	0.24185	0	0
160	-0.00598	1.30537	-0.11735	-0.68034	0.05889	0.28797	0	0
161	-0.00710	1.28947	-0.12898	-0.70734	0.07561	0.33442	0	0
162	-0.00830	1.27297	-0.13929	-0.73454	0.09439	0.37569	0	0
163	-0.00960	1.25586	-0.15119	-0.76170	0.11555	0.42324	0	0
164	-0.01098	1.23814	-0.16074	-0.78954	0.13865	0.46197	0	0
165	-0.01241	1.21982	-0.16840	-0.81698	0.16329	0.49280	0	0
166	-0.01392	1.20089	-0.17660	-0.84422	0.18956	0.52553	0	0
167	-0.01550	1.18135	-0.18600	-0.87233	0.21777	0.56418	0	0
168	-0.01714	1.16121	-0.19409	-0.89990	0.24761	0.59679	0	0
169	-0.01886	1.14044	-0.20212	-0.92835	0.27914	0.63080	0	0
170	-0.02065	1.11905	-0.21215	-0.95751	0.31284	0.67409	0	0
171	-0.02252	1.09703	-0.22050	-0.98625	0.34835	0.71015	0	0
172	-0.02447	1.07437	-0.23120	-1.01611	0.38625	0.75803	0	0
173	-0.02652	1.05108	-0.24260	-1.04597	0.42668	0.80875	0	0
174	-0.02866	1.02715	-0.25311	-1.07617	0.46954	0.85732	0	0
175	-0.03088	1.00258	-0.26244	-1.10612	0.51459	0.90103	0	0
176	-0.03318	0.97738	-0.27086	-1.13607	0.56167	0.94165	0	0
177	-0.03543	0.95166	-0.26333	-1.15977	0.60682	0.90317	0	0
178	-0.03761	0.92541	-0.25284	-1.18360	0.64956	0.85479	0	0
179	-0.03975	0.89864	-0.24582	-1.20706	0.69044	0.81750	0	0
180	-0.04184	0.87134	-0.23964	-1.23029	0.72952	0.78171	0	0
181	-0.04388	0.84355	-0.23172	-1.25238	0.76626	0.73481	0	0
182	-0.04589	0.81522	-0.22516	-1.27562	0.80115	0.69778	0	0
183	-0.04784	0.78637	-0.21806	-1.29820	0.83394	0.65570	0	0
184	-0.04974	0.75703	-0.21063	-1.31942	0.86419	0.60507	0	0
185	-0.05161	0.72716	-0.20567	-1.34202	0.89263	0.56871	0	0
186	-0.05345	0.69681	-0.19929	-1.36290	0.91855	0.51855	0	0
187	-0.05524	0.66595	-0.19378	-1.38453	0.94230	0.47488	0	0
188	-0.05699	0.63457	-0.18813	-1.40642	0.96391	0.43236	0	0
189	-0.05871	0.60268	-0.18266	-1.42801	0.98333	0.38833	0	0
190	-0.06038	0.57031	-0.17594	-1.44826	0.99998	0.33306	0	0
191	-0.06201	0.53742	-0.17110	-1.46997	1.01454	0.29106	0	0
192	-0.06360	0.50405	-0.16519	-1.48984	1.02629	0.23496	0	0
193	-0.06515	0.47015	-0.16057	-1.51229	1.03619	0.19810	0	0
194	-0.06666	0.43578	-0.15485	-1.53191	1.04322	0.14067	0	0
195	-0.06814	0.40090	-0.15003	-1.55269	1.04785	0.09256	0	0
196	-0.06958	0.36553	-0.14447	-1.57334	1.04995	0.04206	0	0
197	-0.07097	0.32963	-0.13991	-1.59559	1.05016	0.00406	0	0
198	-0.07234	0.29323	-0.13540	-1.61651	1.04803	-0.04255	0	0
199	-0.07366	0.25635	-0.12963	-1.63651	1.04315	-0.09768	0	0
200	-0.07496	0.21894	-0.12625	-1.65867	1.03645	-0.13391	0	0
201	-0.07621	0.18104	-0.12017	-1.67930	1.02717	-0.18553	0	0
202	-0.07742	0.14260	-0.11597	-1.70182	1.01612	-0.22101	0	0
203	-0.07861	0.10364	-0.11158	-1.72429	1.00326	-0.25725	0	0
204	-0.07976	0.06419	-0.10618	-1.74435	0.98771	-0.31097	0	1
205	-0.08343	0.05743	-0.40808	-0.46668	1.07558	1.49195	0	1
206	-0.08834	0.05742	-0.54445	-0.17277	1.23606	2.95269	0	1
207	-0.09395	0.05612	-0.58847	-0.19621	1.39041	2.93272	0	1
208	-0.10031	0.05386	-0.64807	-0.20878	1.53771	2.93670	0	1
209	-0.10771	0.05118	-0.73239	-0.22139	1.68539	2.95151	0	0
210	-0.11528	0.04794	-0.73163	-0.24012	1.83001	2.89575	0	0
211	-0.12306	0.04416	-0.73287	-0.25859	1.97139	2.83028	0	0
212	-0.13104	0.03978	-0.73521	-0.27839	2.11002	2.77508	0	0
213	-0.13919	0.03478	-0.73781	-0.29806	2.24595	2.72110	0	0
214	-0.14751	0.02911	-0.74107	-0.31896	2.37963	2.67594	0	0
215	-0.15600	0.02275	-0.74839	-0.33954	2.51053	2.62023	0	0
216	-0.16464	0.01567	-0.75448	-0.36194	2.63937	2.57890	0	0
217	-0.17388	0.01257	-0.79019	-0.17979	2.78498	2.91505	0	0
218	-0.00699	1.40445	-0.35964	-0.15655	0.00997	0.11928	0	0
219	-0.01061	1.40032	-0.36973	-0.18358	0.01795	0.15963	0	0
220	-0.01431	1.39560	-0.38086	-0.20999	0.02816	0.20410	0	0
221	-0.01808	1.39028	-0.38844	-0.23656	0.03987	0.23430	0	0
222	-0.02194	1.38437	-0.40052	-0.26319	0.05400	0.28254	0	0
223	-0.02587	1.37785	-0.40826	-0.29023	0.06967	0.31344	0	0
224	-0.02986	1.37074	-0.41730	-0.31691	0.08713	0.34936	0	0
225	-0.03393	1.36303	-0.42632	-0.34423	0.10641	0.38557	0	0
226	-0.03806	1.35470	-0.43382	-0.37160	0.12720	0.41572	0	0
227	-0.04228	1.34578	-0.44467	-0.39879	0.15014	0.45900	0	0
228	-0.04658	1.33624	-0.45556	-0.42670	0.17530	0.50323	0	0
229	-0.05116	1.32760	-0.48235	-0.38690	0.20001	0.49426	0	0
230	-0.05574	1.31837	-0.48241	-0.41363	0.22472	0.49418	0	0
231	-0.06032	1.30855	-0.48246	-0.44035	0.24942	0.49408	0	0
232	-0.06490	1.29814	-0.48252	-0.46707	0.27412	0.49399	0	0
233	-0.06949	1.28714	-0.48257	-0.49380	0.29881	0.49389	0	0
234	-0.07414	1.27552	-0.48995	-0.52162	0.32503	0.52435	0	0
235	-0.07886	1.26327	-0.49879	-0.55087	0.35321	0.56367	0	0
236	-0.08364	1.25040	-0.50661	-0.57905	0.38303	0.59657	0	0
237	-0.08848	1.23691	-0.51342	-0.60791	0.41441	0.62754	0	0
238	-0.09338	1.22279	-0.52038	-0.63663	0.44734	0.65877	0	0
239	-0.09838	1.20803	-0.53154	-0.66679	0.48283	0.70989	0	0
240	-0.10344	1.19265	-0.53873	-0.69552	0.51993	0.74194	0	0
241	-0.10858	1.17661	-0.54900	-0.72645	0.55957	0.79296	0	0
242	-0.11379	1.15991	-0.55591	-0.75786	0.60127	0.83397	0	0
243	-0.11907	1.14256	-0.56414	-0.78806	0.64507	0.87602	0	0
244	-0.12429	1.12472	-0.55586	-0.81036	0.68655	0.82945	0	0
245	-0.12948	1.10634	-0.54954	-0.83413	0.72633	0.79574	0	0
246	-0.13463	1.08746	-0.54296	-0.85673	0.76410	0.75543	0	0
247	-0.13974	1.06805	-0.53657	-0.87955	0.79994	0.71671	0	0
248	-0.14480	1.04814	-0.52900	-0.90107	0.83331	0.66752	0	0
249	-0.14980	1.02774	-0.52072	-0.92223	0.86403	0.61431	0	0
250	-0.15476	1.00681	-0.51506	-0.94537	0.89299	0.57923	0	0
251	-0.15968	0.98538	-0.50872	-0.96644	0.91951	0.53030	0	0
252	-0.16456	0.96348	-0.50165	-0.98630	0.94311	0.47215	0	0
253	-0.16939	0.94108	-0.49538	-1.00712	0.96419	0.42160	0	0
254	-0.17416	0.91820	-0.48822	-1.02717	0.98241	0.36423	0	0
255	-0.17890	0.89481	-0.48215	-1.04806	0.99813	0.31442	0	0
256	-0.18359	0.87095	-0.47604	-1.06788	1.01101	0.25767	0	0
257	-0.18824	0.84660	-0.47065	-1.08825	1.02131	0.20592	0	0
258	-0.19285	0.82176	-0.46461	-1.10829	1.02884	0.15061	0	0
259	-0.19742	0.79642	-0.45979	-1.12935	1.03405	0.10436	0	0
260	-0.20194	0.77059	-0.45335	-1.14940	1.03647	0.04827	0	0
261	-0.20642	0.74428	-0.44752	-1.16922	1.03606	-0.00813	0	0
262	-0.21085	0.71747	-0.44201	-1.18940	1.03299	-0.06151	0	0
263	-0.21525	0.69015	-0.43711	-1.21153	1.02794	-0.10098	0	0
264	-0.21961	0.66233	-0.43246	-1.23215	1.02045	-0.14966	0	0
265	-0.22394	0.63402	-0.42690	-1.25229	1.01029	-0.20337	0	0
266	-0.22822	0.60521	-0.42195	-1.27327	0.99777	-0.25027	0	0
267	-0.23247	0.57591	-0.41573	-1.29347	0.98253	-0.30480	0	0
268	-0.23667	0.54610	-0.41116	-1.31553	0.96534	-0.34390	0	0
269	-0.24085	0.51576	-0.40664	-1.33779	0.94626	-0.38160	0	0
270	-0.24499	0.48494	-0.40019	-1.35776	0.92437	-0.43773	0	0
271	-0.24908	0.45359	-0.39505	-1.38075	0.90076	-0.47226	0	0
272	-0.25314	0.42174	-0.38909	-1.40204	0.87481	-0.51896	0	0
273	-0.25714	0.38941	-0.38143	-1.42232	0.84603	-0.57566	0	0
274	-0.26110	0.35657	-0.37464	-1.44385	0.81489	-0.62270	0	0
275	-0.26502	0.32323	-0.36774	-1.46547	0.78142	-0.66942	0	0
276	-0.26888	0.28940	-0.35994	-1.48686	0.74544	-0.71968	0	0
277	-0.27269	0.25508	-0.35156	-1.50790	0.70678	-0.77321	0	0
278	-0.27645	0.22025	-0.34422	-1.53069	0.66605	-0.81453	0	0
279	-0.28017	0.18490	-0.33774	-1.55376	0.62346	-0.85174	0	0
280	-0.28382	0.14904	-0.32792	-1.57626	0.57836	-0.90204	0	0
281	-0.28742	0.11269	-0.31842	-1.59892	0.53084	-0.95040	0	0
282	-0.29094	0.07582	-0.30819	-1.62226	0.48092	-0.99839	0	0
283	-0.29442	0.03842	-0.30128	-1.64654	0.42936	-1.03120	0	0
284	-0.29784	0.00052	-0.29192	-1.67031	0.37565	-1.07430	0	0
285	-0.30119	-0.03791	-0.28198	-1.69492	0.31980	-1.11692	0	0
286	-0.30461	-0.07605	-0.26384	-1.67927	0.24334	-1.52360	1	1
